# Ef    7.196734172E-01
#    energy      ,  LDOS SUM       ,  LDOS S         ,  LDOS P         ,  LDOS D
-2.000000000E+00   3.057319847E-04   3.399835552E-05   7.794435119E-05   1.937892780E-04
-1.960000000E+00   3.140626168E-04   3.492591925E-05   7.978545007E-05   1.993512474E-04
-1.920000000E+00   3.227431209E-04   3.589255960E-05   8.169337426E-05   2.051571871E-04
-1.880000000E+00   3.317936172E-04   3.690053669E-05   8.367144265E-05   2.112216379E-04
-1.840000000E+00   3.412357101E-04   3.795227888E-05   8.572318594E-05   2.175602453E-04
-1.800000000E+00   3.510926233E-04   3.905039827E-05   8.785236335E-05   2.241898616E-04
-1.760000000E+00   3.613893489E-04   4.019770787E-05   9.006298094E-05   2.311286601E-04
-1.720000000E+00   3.721528141E-04   4.139724077E-05   9.235931167E-05   2.383962617E-04
-1.680000000E+00   3.834120650E-04   4.265227138E-05   9.474591739E-05   2.460138762E-04
-1.640000000E+00   3.951984727E-04   4.396633926E-05   9.722767309E-05   2.540044604E-04
-1.600000000E+00   4.075459631E-04   4.534327573E-05   9.980979354E-05   2.623928939E-04
-1.560000000E+00   4.204912734E-04   4.678723369E-05   1.024978627E-04   2.712061770E-04
-1.520000000E+00   4.340742400E-04   4.830272114E-05   1.052978663E-04   2.804736525E-04
-1.480000000E+00   4.483381219E-04   4.989463889E-05   1.082162275E-04   2.902272555E-04
-1.440000000E+00   4.633299643E-04   5.156832312E-05   1.112598473E-04   3.005017939E-04
-1.400000000E+00   4.791010087E-04   5.332959351E-05   1.144361481E-04   3.113352671E-04
-1.360000000E+00   4.957071565E-04   5.518480784E-05   1.177531234E-04   3.227692252E-04
-1.320000000E+00   5.132094941E-04   5.714092394E-05   1.212193927E-04   3.348491775E-04
-1.280000000E+00   5.316748897E-04   5.920557041E-05   1.248442625E-04   3.476250568E-04
-1.240000000E+00   5.511766721E-04   6.138712739E-05   1.286377952E-04   3.611517495E-04
-1.200000000E+00   5.717954065E-04   6.369481911E-05   1.326108859E-04   3.754897016E-04
-1.160000000E+00   5.936197821E-04   6.613882030E-05   1.367753491E-04   3.907056127E-04
-1.120000000E+00   6.167476315E-04   6.873037896E-05   1.411440166E-04   4.068732360E-04
-1.080000000E+00   6.412871047E-04   7.148195836E-05   1.457308470E-04   4.240742994E-04
-1.040000000E+00   6.673580256E-04   7.440740193E-05   1.505510517E-04   4.423995720E-04
-1.000000000E+00   6.950934645E-04   7.752212558E-05   1.556212362E-04   4.619501027E-04
-9.600000000E-01   7.246415675E-04   8.084334251E-05   1.609595625E-04   4.828386625E-04
-9.200000000E-01   7.561676927E-04   8.439032758E-05   1.665859341E-04   5.051914310E-04
-8.800000000E-01   7.898569140E-04   8.818472911E-05   1.725222083E-04   5.291499766E-04
-8.400000000E-01   8.259169688E-04   9.225093859E-05   1.787924409E-04   5.548735893E-04
-8.000000000E-01   8.645817416E-04   9.661653110E-05   1.854231688E-04   5.825420417E-04
-7.600000000E-01   9.061154023E-04   1.013127926E-04   1.924437375E-04   6.123588722E-04
-7.200000000E-01   9.508173437E-04   1.063753550E-04   1.998866832E-04   6.445553056E-04
-6.800000000E-01   9.990281051E-04   1.118449647E-04   2.077881796E-04   6.793949608E-04
-6.400000000E-01   1.051136517E-03   1.177684204E-04   2.161885631E-04   7.171795333E-04
-6.000000000E-01   1.107588368E-03   1.241997218E-04   2.251329538E-04   7.582556925E-04
-5.600000000E-01   1.168896990E-03   1.312014905E-04   2.346719928E-04   8.030235071E-04
-5.200000000E-01   1.235656265E-03   1.388467382E-04   2.448627242E-04   8.519468031E-04
-4.800000000E-01   1.308556730E-03   1.472210870E-04   2.557696555E-04   9.055659876E-04
-4.400000000E-01   1.388405670E-03   1.564255814E-04   2.674660413E-04   9.645140472E-04
-4.000000000E-01   1.476152405E-03   1.665802845E-04   2.800354509E-04   1.029536670E-03
-3.600000000E-01   1.572920399E-03   1.778289257E-04   2.935736950E-04   1.101517778E-03
-3.200000000E-01   1.680048440E-03   1.903449755E-04   3.081912164E-04   1.181512248E-03
-2.800000000E-01   1.799144044E-03   2.043396862E-04   3.240160860E-04   1.270788272E-03
-2.400000000E-01   1.932153534E-03   2.200728791E-04   3.411977945E-04   1.370882860E-03
-2.000000000E-01   2.081455231E-03   2.378676367E-04   3.599121095E-04   1.483675485E-03
-1.600000000E-01   2.249985224E-03   2.581306473E-04   3.803673764E-04   1.611487200E-03
-1.200000000E-01   2.441409907E-03   2.813809033E-04   4.028128120E-04   1.757216192E-03
-8.000000000E-02   2.660367098E-03   3.082910228E-04   4.275495941E-04   1.924526481E-03
-4.000000000E-02   2.912810099E-03   3.397481429E-04   4.549459609E-04   2.118115996E-03
 0.000000000E+00   3.206510533E-03   3.769460380E-04   4.854581921E-04   2.344106302E-03
 4.000000000E-02   3.551813639E-03   4.215286991E-04   5.196604470E-04   2.610624493E-03
 8.000000000E-02   3.962809617E-03   4.758219620E-04   5.582883440E-04   2.928699311E-03
 1.200000000E-01   4.459219565E-03   5.432224426E-04   6.023046185E-04   3.313692504E-03
 1.600000000E-01   5.069570664E-03   6.288822044E-04   6.530017138E-04   3.787686746E-03
 2.000000000E-01   5.836838340E-03   7.409842277E-04   7.121692220E-04   4.383684891E-03
 2.400000000E-01   6.829161221E-03   8.932889360E-04   7.823820549E-04   5.153490230E-03
 2.800000000E-01   8.161968807E-03   1.110680961E-03   8.675303318E-04   6.183757514E-03
 3.200000000E-01   1.004894808E-02   1.442702926E-03   9.738805730E-04   7.632364584E-03
 3.600000000E-01   1.293829176E-02   2.002151162E-03   1.112460820E-03   9.823679773E-03
 4.000000000E-01   1.796634613E-02   3.104101984E-03   1.305399483E-03   1.355684466E-02
 4.400000000E-01   2.916220518E-02   6.024329590E-03   1.608178799E-03   2.152969679E-02
 4.800000000E-01   9.074382275E-02   3.034235229E-02   2.272211227E-03   5.812925923E-02
 5.200000000E-01   2.460923539E+00   8.207758156E-01   1.085741037E-02   1.629290313E+00
 5.600000000E-01   6.997810855E+00   1.526076896E+00   1.857732544E-01   5.285960705E+00
 6.000000000E-01   5.567714191E+00   4.109690518E-01   2.272984032E-01   4.929446736E+00
 6.400000000E-01   1.799772041E+00   2.171652075E-01   1.872364799E-01   1.395370353E+00
 6.800000000E-01   8.051169031E+00   7.030530268E-01   1.141412977E+00   6.206703027E+00
 7.200000000E-01   9.774498568E+00   3.573736569E-01   1.335438615E+00   8.081686296E+00
 7.600000000E-01   4.836646039E+00   6.337414497E-02   5.638941762E-01   4.209377718E+00
 8.000000000E-01   1.626628132E+01   2.429116792E-02   6.373652339E-01   1.560462492E+01
 8.400000000E-01   1.852328423E+01   6.182331209E-02   7.099436233E-01   1.775151730E+01
 8.800000000E-01   1.479343436E+01   2.872493738E-01   2.634899819E-01   1.424269500E+01
 9.200000000E-01   1.243714400E+01   2.393380847E-01   1.584330241E-01   1.203937289E+01
 9.600000000E-01   1.411525993E+01   2.588425860E+00   1.557052773E-01   1.137112879E+01
 1.000000000E+00   2.297240710E+01   3.243325693E+00   1.475334390E+00   1.825374702E+01
 1.040000000E+00   5.957254745E+00   2.899277799E+00   8.312825300E-01   2.226694416E+00
 1.080000000E+00   6.045447082E+00   1.874453054E+00   9.443075982E-01   3.226686430E+00
 1.120000000E+00   6.495293345E+00   9.606487213E-01   5.331174253E+00   2.034703708E-01
 1.160000000E+00   6.549249349E+00   2.194008702E+00   3.633470812E+00   7.217698353E-01
 1.200000000E+00   3.576204740E+00   6.753882745E-01   2.631825780E+00   2.689906859E-01
 1.240000000E+00   1.886577280E+00   4.725102741E-02   1.490205813E+00   3.491204391E-01
 1.280000000E+00   3.759390666E-01   8.548782175E-03   1.674236626E-01   1.999666218E-01
 1.320000000E+00   7.162684570E-01   2.566549581E-02   3.040889884E-01   3.865139728E-01
 1.360000000E+00   9.170568252E-01   7.119670905E-02   4.079611621E-01   4.378989540E-01
 1.400000000E+00   1.085517973E+00   2.939972922E-02   9.804463913E-01   7.567185272E-02
 1.440000000E+00   4.324130081E+00   1.560428670E+00   1.484469441E+00   1.279231970E+00
 1.480000000E+00   2.254561797E+00   2.756136902E-01   1.592035541E+00   3.869125658E-01
 1.520000000E+00   5.437542123E+00   1.307007673E-01   4.755433659E+00   5.514076967E-01
 1.560000000E+00   5.965428693E+00   6.422024428E-02   5.794636754E+00   1.065716947E-01
 1.600000000E+00   9.934484285E+00   7.730009017E-01   8.290029291E+00   8.714540915E-01
 1.640000000E+00   1.567080044E+01   9.447388169E+00   4.761371719E+00   1.462040552E+00
 1.680000000E+00   5.172965827E+00   6.180794154E-01   4.113502311E+00   4.413841006E-01
 1.720000000E+00   3.460401340E+00   3.292392545E-01   2.764394911E+00   3.667671744E-01
 1.760000000E+00   4.807472005E+00   3.344093746E-01   4.210820104E+00   2.622425266E-01
 1.800000000E+00   4.118384581E+00   1.212428686E-01   3.837789215E+00   1.593524965E-01
 1.840000000E+00   3.766164963E+00   1.459466464E-01   3.391884068E+00   2.283342484E-01
 1.880000000E+00   4.918478849E+00   6.547182781E-02   4.746766556E+00   1.062404645E-01
 1.920000000E+00   1.833216834E+00   9.574968609E-03   1.800326841E+00   2.331502402E-02
 1.960000000E+00   3.087800202E+00   1.931881618E-02   3.027193892E+00   4.128749456E-02
 2.000000000E+00   8.499038113E-02   1.211121139E-03   8.152747205E-02   2.251787950E-03
