# Ef    7.196734172E-01
#    energy      ,  LDOS SUM       ,  LDOS S         ,  LDOS P         ,  LDOS D
-2.000000000E+00   3.057319843E-04   3.399835552E-05   7.794435119E-05   1.937892776E-04
-1.960000000E+00   3.140626163E-04   3.492591925E-05   7.978545007E-05   1.993512470E-04
-1.920000000E+00   3.227431205E-04   3.589255960E-05   8.169337426E-05   2.051571866E-04
-1.880000000E+00   3.317936168E-04   3.690053669E-05   8.367144265E-05   2.112216374E-04
-1.840000000E+00   3.412357097E-04   3.795227888E-05   8.572318594E-05   2.175602449E-04
-1.800000000E+00   3.510926228E-04   3.905039826E-05   8.785236334E-05   2.241898612E-04
-1.760000000E+00   3.613893484E-04   4.019770787E-05   9.006298094E-05   2.311286596E-04
-1.720000000E+00   3.721528136E-04   4.139724077E-05   9.235931167E-05   2.383962611E-04
-1.680000000E+00   3.834120644E-04   4.265227138E-05   9.474591739E-05   2.460138757E-04
-1.640000000E+00   3.951984722E-04   4.396633926E-05   9.722767309E-05   2.540044598E-04
-1.600000000E+00   4.075459625E-04   4.534327573E-05   9.980979354E-05   2.623928932E-04
-1.560000000E+00   4.204912727E-04   4.678723369E-05   1.024978627E-04   2.712061763E-04
-1.520000000E+00   4.340742393E-04   4.830272114E-05   1.052978663E-04   2.804736519E-04
-1.480000000E+00   4.483381212E-04   4.989463889E-05   1.082162275E-04   2.902272547E-04
-1.440000000E+00   4.633299635E-04   5.156832311E-05   1.112598473E-04   3.005017931E-04
-1.400000000E+00   4.791010079E-04   5.332959351E-05   1.144361481E-04   3.113352663E-04
-1.360000000E+00   4.957071556E-04   5.518480784E-05   1.177531234E-04   3.227692244E-04
-1.320000000E+00   5.132094932E-04   5.714092394E-05   1.212193927E-04   3.348491766E-04
-1.280000000E+00   5.316748887E-04   5.920557041E-05   1.248442625E-04   3.476250558E-04
-1.240000000E+00   5.511766711E-04   6.138712739E-05   1.286377952E-04   3.611517485E-04
-1.200000000E+00   5.717954055E-04   6.369481910E-05   1.326108858E-04   3.754897005E-04
-1.160000000E+00   5.936197810E-04   6.613882030E-05   1.367753491E-04   3.907056116E-04
-1.120000000E+00   6.167476303E-04   6.873037896E-05   1.411440165E-04   4.068732348E-04
-1.080000000E+00   6.412871035E-04   7.148195835E-05   1.457308470E-04   4.240742981E-04
-1.040000000E+00   6.673580242E-04   7.440740193E-05   1.505510517E-04   4.423995707E-04
-1.000000000E+00   6.950934630E-04   7.752212557E-05   1.556212362E-04   4.619501013E-04
-9.600000000E-01   7.246415659E-04   8.084334250E-05   1.609595625E-04   4.828386609E-04
-9.200000000E-01   7.561676910E-04   8.439032757E-05   1.665859341E-04   5.051914293E-04
-8.800000000E-01   7.898569122E-04   8.818472910E-05   1.725222083E-04   5.291499748E-04
-8.400000000E-01   8.259169669E-04   9.225093858E-05   1.787924409E-04   5.548735874E-04
-8.000000000E-01   8.645817395E-04   9.661653109E-05   1.854231688E-04   5.825420397E-04
-7.600000000E-01   9.061154000E-04   1.013127926E-04   1.924437375E-04   6.123588700E-04
-7.200000000E-01   9.508173413E-04   1.063753549E-04   1.998866832E-04   6.445553032E-04
-6.800000000E-01   9.990281025E-04   1.118449647E-04   2.077881796E-04   6.793949583E-04
-6.400000000E-01   1.051136514E-03   1.177684204E-04   2.161885631E-04   7.171795305E-04
-6.000000000E-01   1.107588365E-03   1.241997218E-04   2.251329537E-04   7.582556894E-04
-5.600000000E-01   1.168896987E-03   1.312014904E-04   2.346719928E-04   8.030235038E-04
-5.200000000E-01   1.235656262E-03   1.388467381E-04   2.448627242E-04   8.519467995E-04
-4.800000000E-01   1.308556726E-03   1.472210870E-04   2.557696554E-04   9.055659836E-04
-4.400000000E-01   1.388405665E-03   1.564255814E-04   2.674660413E-04   9.645140428E-04
-4.000000000E-01   1.476152400E-03   1.665802845E-04   2.800354509E-04   1.029536665E-03
-3.600000000E-01   1.572920393E-03   1.778289256E-04   2.935736949E-04   1.101517773E-03
-3.200000000E-01   1.680048434E-03   1.903449754E-04   3.081912163E-04   1.181512242E-03
-2.800000000E-01   1.799144038E-03   2.043396861E-04   3.240160859E-04   1.270788266E-03
-2.400000000E-01   1.932153526E-03   2.200728790E-04   3.411977944E-04   1.370882853E-03
-2.000000000E-01   2.081455222E-03   2.378676365E-04   3.599121094E-04   1.483675476E-03
-1.600000000E-01   2.249985214E-03   2.581306471E-04   3.803673763E-04   1.611487190E-03
-1.200000000E-01   2.441409896E-03   2.813809031E-04   4.028128119E-04   1.757216181E-03
-8.000000000E-02   2.660367085E-03   3.082910225E-04   4.275495939E-04   1.924526469E-03
-4.000000000E-02   2.912810084E-03   3.397481426E-04   4.549459607E-04   2.118115981E-03
 0.000000000E+00   3.206510515E-03   3.769460375E-04   4.854581919E-04   2.344106285E-03
 4.000000000E-02   3.551813618E-03   4.215286985E-04   5.196604466E-04   2.610624473E-03
 8.000000000E-02   3.962809591E-03   4.758219612E-04   5.582883436E-04   2.928699287E-03
 1.200000000E-01   4.459219535E-03   5.432224415E-04   6.023046180E-04   3.313692475E-03
 1.600000000E-01   5.069570626E-03   6.288822029E-04   6.530017131E-04   3.787686710E-03
 2.000000000E-01   5.836838292E-03   7.409842254E-04   7.121692210E-04   4.383684845E-03
 2.400000000E-01   6.829161158E-03   8.932889324E-04   7.823820536E-04   5.153490172E-03
 2.800000000E-01   8.161968720E-03   1.110680955E-03   8.675303300E-04   6.183757435E-03
 3.200000000E-01   1.004894796E-02   1.442702915E-03   9.738805704E-04   7.632364471E-03
 3.600000000E-01   1.293829156E-02   2.002151141E-03   1.112460816E-03   9.823679600E-03
 4.000000000E-01   1.796634577E-02   3.104101933E-03   1.305399476E-03   1.355684436E-02
 4.400000000E-01   2.916220427E-02   6.024329411E-03   1.608178785E-03   2.152969607E-02
 4.800000000E-01   9.074381297E-02   3.034234816E-02   2.272211176E-03   5.812925363E-02
 5.200000000E-01   2.460923705E+00   8.207760718E-01   1.085741187E-02   1.629290222E+00
 5.600000000E-01   6.997812274E+00   1.526077225E+00   1.857733046E-01   5.285961744E+00
 6.000000000E-01   5.567721417E+00   4.109698145E-01   2.272986621E-01   4.929452941E+00
 6.400000000E-01   1.799769949E+00   2.171649560E-01   1.872362500E-01   1.395368743E+00
 6.800000000E-01   8.051172430E+00   7.030533742E-01   1.141413483E+00   6.206705572E+00
 7.200000000E-01   9.774494482E+00   3.573736686E-01   1.335438084E+00   8.081682729E+00
 7.600000000E-01   4.836650701E+00   6.337422606E-02   5.638950954E-01   4.209381380E+00
 8.000000000E-01   1.626628092E+01   2.429116929E-02   6.373650886E-01   1.560462466E+01
 8.400000000E-01   1.852327924E+01   6.182329875E-02   7.099436463E-01   1.775151229E+01
 8.800000000E-01   1.479343441E+01   2.872495999E-01   2.634901756E-01   1.424269464E+01
 9.200000000E-01   1.243715981E+01   2.393381185E-01   1.584330834E-01   1.203938861E+01
 9.600000000E-01   1.411526077E+01   2.588426007E+00   1.557052900E-01   1.137112948E+01
 1.000000000E+00   2.297241082E+01   3.243325214E+00   1.475333636E+00   1.825375197E+01
 1.040000000E+00   5.957257835E+00   2.899277939E+00   8.312827145E-01   2.226697182E+00
 1.080000000E+00   6.045449884E+00   1.874453069E+00   9.443076012E-01   3.226689214E+00
 1.120000000E+00   6.495293339E+00   9.606487201E-01   5.331174241E+00   2.034703781E-01
 1.160000000E+00   6.549249081E+00   2.194008587E+00   3.633470692E+00   7.217698013E-01
 1.200000000E+00   3.576204890E+00   6.753883189E-01   2.631825885E+00   2.689906865E-01
 1.240000000E+00   1.886576504E+00   4.725102604E-02   1.490205630E+00   3.491198480E-01
 1.280000000E+00   3.759393941E-01   8.548784323E-03   1.674237782E-01   1.999668316E-01
 1.320000000E+00   7.162693730E-01   2.566552346E-02   3.040893658E-01   3.865144837E-01
 1.360000000E+00   9.170579322E-01   7.119679342E-02   4.079616312E-01   4.378995076E-01
 1.400000000E+00   1.085517999E+00   2.939973312E-02   9.804463998E-01   7.567186608E-02
 1.440000000E+00   4.324128100E+00   1.560427791E+00   1.484469107E+00   1.279231202E+00
 1.480000000E+00   2.254562009E+00   2.756137699E-01   1.592035598E+00   3.869126416E-01
 1.520000000E+00   5.437542580E+00   1.307007365E-01   4.755433993E+00   5.514078508E-01
 1.560000000E+00   5.965428694E+00   6.422024725E-02   5.794636744E+00   1.065717025E-01
 1.600000000E+00   9.934485730E+00   7.730011752E-01   8.290030148E+00   8.714544074E-01
 1.640000000E+00   1.567080179E+01   9.447389101E+00   4.761372004E+00   1.462040687E+00
 1.680000000E+00   5.172966397E+00   6.180794675E-01   4.113502721E+00   4.413842077E-01
 1.720000000E+00   3.460401903E+00   3.292393009E-01   2.764395360E+00   3.667672416E-01
 1.760000000E+00   4.807471891E+00   3.344093595E-01   4.210820004E+00   2.622425280E-01
 1.800000000E+00   4.118384819E+00   1.212428794E-01   3.837789424E+00   1.593525156E-01
 1.840000000E+00   3.766165148E+00   1.459466551E-01   3.391884229E+00   2.283342635E-01
 1.880000000E+00   4.918478934E+00   6.547183055E-02   4.746766633E+00   1.062404701E-01
 1.920000000E+00   1.833216824E+00   9.574968614E-03   1.800326831E+00   2.331502436E-02
 1.960000000E+00   3.087800228E+00   1.931881639E-02   3.027193916E+00   4.128749520E-02
 2.000000000E+00   8.499038121E-02   1.211121140E-03   8.152747211E-02   2.251787963E-03
